ESTAR: Stopping Powers and Range Tables for Electrons

POLYMETHYL METHACRALATE (LUCITE, PERSPEX, PLEXIGLASS)

Kinetic   Collision Radiative Total     D. Effect
Energy    Stp. Pow. Stp. Pow. Stp. Pow. Parameter
MeV       MeV cm2/g MeV cm2/g MeV cm2/g

1.300E-02 1.793E+01 3.351E-03 1.793E+01 0.000E+00
1.900E-02 1.335E+01 3.370E-03 1.335E+01 0.000E+00
2.500E-02 1.080E+01 3.382E-03 1.081E+01 0.000E+00
3.100E-02 9.169E+00 3.393E-03 9.173E+00 0.000E+00
3.700E-02 8.025E+00 3.406E-03 8.029E+00 0.000E+00
4.300E-02 7.178E+00 3.420E-03 7.182E+00 0.000E+00
4.900E-02 6.524E+00 3.436E-03 6.528E+00 0.000E+00
5.500E-02 6.003E+00 3.453E-03 6.007E+00 0.000E+00
6.100E-02 5.578E+00 3.472E-03 5.582E+00 0.000E+00
6.700E-02 5.225E+00 3.491E-03 5.228E+00 0.000E+00
7.300E-02 4.926E+00 3.512E-03 4.930E+00 0.000E+00
7.900E-02 4.671E+00 3.534E-03 4.674E+00 0.000E+00
8.500E-02 4.449E+00 3.557E-03 4.453E+00 0.000E+00
9.100E-02 4.255E+00 3.581E-03 4.259E+00 0.000E+00
9.700E-02 4.084E+00 3.606E-03 4.088E+00 0.000E+00
1.030E-01 3.932E+00 3.631E-03 3.936E+00 0.000E+00
1.090E-01 3.797E+00 3.658E-03 3.800E+00 0.000E+00
1.150E-01 3.674E+00 3.685E-03 3.678E+00 0.000E+00
1.210E-01 3.564E+00 3.713E-03 3.568E+00 0.000E+00
1.270E-01 3.464E+00 3.742E-03 3.467E+00 0.000E+00
1.330E-01 3.372E+00 3.770E-03 3.376E+00 0.000E+00
1.390E-01 3.288E+00 3.800E-03 3.292E+00 0.000E+00
1.450E-01 3.211E+00 3.830E-03 3.215E+00 0.000E+00
1.510E-01 3.140E+00 3.860E-03 3.144E+00 0.000E+00
1.570E-01 3.074E+00 3.891E-03 3.078E+00 0.000E+00
1.630E-01 3.013E+00 3.923E-03 3.017E+00 0.000E+00
1.690E-01 2.957E+00 3.954E-03 2.961E+00 0.000E+00
1.750E-01 2.904E+00 3.987E-03 2.908E+00 0.000E+00
1.810E-01 2.855E+00 4.019E-03 2.859E+00 0.000E+00
1.870E-01 2.809E+00 4.052E-03 2.813E+00 0.000E+00
1.930E-01 2.766E+00 4.086E-03 2.770E+00 0.000E+00
1.990E-01 2.725E+00 4.120E-03 2.729E+00 0.000E+00
2.050E-01 2.687E+00 4.154E-03 2.691E+00 0.000E+00
2.110E-01 2.651E+00 4.189E-03 2.655E+00 0.000E+00
2.170E-01 2.617E+00 4.224E-03 2.621E+00 0.000E+00
2.230E-01 2.585E+00 4.260E-03 2.589E+00 0.000E+00
2.290E-01 2.555E+00 4.296E-03 2.559E+00 0.000E+00
2.350E-01 2.526E+00 4.332E-03 2.530E+00 0.000E+00
2.410E-01 2.499E+00 4.369E-03 2.503E+00 0.000E+00
2.470E-01 2.473E+00 4.406E-03 2.477E+00 0.000E+00
2.530E-01 2.448E+00 4.443E-03 2.453E+00 0.000E+00
2.590E-01 2.425E+00 4.482E-03 2.430E+00 0.000E+00
2.650E-01 2.403E+00 4.520E-03 2.407E+00 0.000E+00
2.710E-01 2.382E+00 4.559E-03 2.386E+00 0.000E+00
2.770E-01 2.361E+00 4.598E-03 2.366E+00 0.000E+00
2.830E-01 2.342E+00 4.638E-03 2.347E+00 0.000E+00
2.890E-01 2.324E+00 4.677E-03 2.328E+00 0.000E+00
2.950E-01 2.306E+00 4.718E-03 2.311E+00 0.000E+00
3.020E-01 2.286E+00 4.765E-03 2.291E+00 0.000E+00
3.080E-01 2.270E+00 4.806E-03 2.275E+00 0.000E+00
3.140E-01 2.255E+00 4.847E-03 2.260E+00 0.000E+00
3.200E-01 2.240E+00 4.889E-03 2.245E+00 0.000E+00
3.260E-01 2.226E+00 4.931E-03 2.231E+00 0.000E+00
3.320E-01 2.212E+00 4.973E-03 2.217E+00 0.000E+00
3.380E-01 2.199E+00 5.015E-03 2.204E+00 0.000E+00
3.440E-01 2.187E+00 5.058E-03 2.192E+00 0.000E+00
3.500E-01 2.175E+00 5.101E-03 2.180E+00 0.000E+00
3.560E-01 2.163E+00 5.145E-03 2.168E+00 0.000E+00
3.620E-01 2.152E+00 5.189E-03 2.157E+00 0.000E+00
3.680E-01 2.141E+00 5.233E-03 2.147E+00 0.000E+00
3.740E-01 2.131E+00 5.277E-03 2.136E+00 0.000E+00
3.800E-01 2.121E+00 5.322E-03 2.126E+00 0.000E+00
3.860E-01 2.111E+00 5.367E-03 2.117E+00 0.000E+00
3.920E-01 2.102E+00 5.413E-03 2.108E+00 0.000E+00
3.980E-01 2.093E+00 5.459E-03 2.099E+00 0.000E+00
4.040E-01 2.085E+00 5.505E-03 2.090E+00 0.000E+00
4.100E-01 2.076E+00 5.551E-03 2.082E+00 0.000E+00
4.160E-01 2.068E+00 5.597E-03 2.074E+00 0.000E+00
4.220E-01 2.060E+00 5.644E-03 2.066E+00 1.150E-03
4.280E-01 2.052E+00 5.691E-03 2.058E+00 3.954E-03
4.340E-01 2.045E+00 5.739E-03 2.051E+00 6.808E-03
4.400E-01 2.037E+00 5.787E-03 2.043E+00 9.713E-03
4.460E-01 2.030E+00 5.835E-03 2.036E+00 1.266E-02
4.520E-01 2.023E+00 5.883E-03 2.029E+00 1.566E-02
4.580E-01 2.017E+00 5.931E-03 2.023E+00 1.870E-02
4.640E-01 2.010E+00 5.980E-03 2.016E+00 2.179E-02
4.700E-01 2.004E+00 6.029E-03 2.010E+00 2.492E-02
4.760E-01 1.998E+00 6.079E-03 2.004E+00 2.808E-02
4.820E-01 1.992E+00 6.128E-03 1.998E+00 3.129E-02
4.880E-01 1.986E+00 6.178E-03 1.992E+00 3.453E-02
4.940E-01 1.980E+00 6.228E-03 1.987E+00 3.781E-02
5.000E-01 1.975E+00 6.278E-03 1.981E+00 4.112E-02
5.060E-01 1.970E+00 6.329E-03 1.976E+00 4.447E-02
5.120E-01 1.965E+00 6.380E-03 1.971E+00 4.784E-02
5.180E-01 1.960E+00 6.431E-03 1.966E+00 5.125E-02
5.240E-01 1.955E+00 6.482E-03 1.961E+00 5.470E-02
5.300E-01 1.950E+00 6.533E-03 1.956E+00 5.816E-02
5.360E-01 1.945E+00 6.585E-03 1.952E+00 6.166E-02
5.420E-01 1.941E+00 6.637E-03 1.947E+00 6.519E-02
5.480E-01 1.936E+00 6.689E-03 1.943E+00 6.874E-02
5.540E-01 1.932E+00 6.741E-03 1.939E+00 7.231E-02
5.600E-01 1.928E+00 6.794E-03 1.935E+00 7.591E-02
5.660E-01 1.924E+00 6.847E-03 1.931E+00 7.954E-02
5.720E-01 1.920E+00 6.900E-03 1.927E+00 8.318E-02
5.780E-01 1.916E+00 6.953E-03 1.923E+00 8.685E-02
5.840E-01 1.913E+00 7.006E-03 1.920E+00 9.054E-02
5.900E-01 1.909E+00 7.060E-03 1.916E+00 9.425E-02
5.960E-01 1.905E+00 7.114E-03 1.913E+00 9.798E-02
6.020E-01 1.902E+00 7.168E-03 1.909E+00 1.017E-01
6.080E-01 1.899E+00 7.222E-03 1.906E+00 1.055E-01
6.140E-01 1.895E+00 7.276E-03 1.903E+00 1.093E-01
6.200E-01 1.892E+00 7.331E-03 1.900E+00 1.131E-01
6.260E-01 1.889E+00 7.385E-03 1.896E+00 1.169E-01
6.320E-01 1.886E+00 7.440E-03 1.893E+00 1.207E-01
6.380E-01 1.883E+00 7.496E-03 1.891E+00 1.246E-01
6.440E-01 1.880E+00 7.551E-03 1.888E+00 1.284E-01
6.500E-01 1.877E+00 7.607E-03 1.885E+00 1.323E-01
6.560E-01 1.875E+00 7.662E-03 1.882E+00 1.362E-01
6.620E-01 1.872E+00 7.718E-03 1.880E+00 1.401E-01
6.680E-01 1.869E+00 7.774E-03 1.877E+00 1.440E-01
6.740E-01 1.867E+00 7.830E-03 1.875E+00 1.479E-01
6.800E-01 1.864E+00 7.887E-03 1.872E+00 1.518E-01
6.860E-01 1.862E+00 7.943E-03 1.870E+00 1.558E-01
6.920E-01 1.859E+00 8.000E-03 1.867E+00 1.597E-01
6.980E-01 1.857E+00 8.057E-03 1.865E+00 1.637E-01
7.040E-01 1.855E+00 8.114E-03 1.863E+00 1.677E-01
7.100E-01 1.853E+00 8.172E-03 1.861E+00 1.717E-01
7.160E-01 1.850E+00 8.229E-03 1.859E+00 1.756E-01
7.220E-01 1.848E+00 8.286E-03 1.857E+00 1.796E-01
7.280E-01 1.846E+00 8.344E-03 1.855E+00 1.836E-01
7.340E-01 1.844E+00 8.402E-03 1.853E+00 1.876E-01
7.400E-01 1.842E+00 8.460E-03 1.851E+00 1.917E-01
7.460E-01 1.840E+00 8.518E-03 1.849E+00 1.957E-01
7.520E-01 1.838E+00 8.577E-03 1.847E+00 1.997E-01
7.580E-01 1.837E+00 8.635E-03 1.845E+00 2.038E-01
7.640E-01 1.835E+00 8.694E-03 1.843E+00 2.078E-01
7.700E-01 1.833E+00 8.753E-03 1.842E+00 2.118E-01
7.760E-01 1.831E+00 8.812E-03 1.840E+00 2.159E-01
7.820E-01 1.830E+00 8.871E-03 1.838E+00 2.199E-01
7.880E-01 1.828E+00 8.931E-03 1.837E+00 2.240E-01
7.940E-01 1.826E+00 8.990E-03 1.835E+00 2.281E-01
8.000E-01 1.825E+00 9.050E-03 1.834E+00 2.321E-01
8.060E-01 1.823E+00 9.110E-03 1.832E+00 2.362E-01
8.120E-01 1.822E+00 9.170E-03 1.831E+00 2.403E-01
8.180E-01 1.820E+00 9.230E-03 1.829E+00 2.443E-01
8.240E-01 1.819E+00 9.290E-03 1.828E+00 2.484E-01
8.300E-01 1.817E+00 9.351E-03 1.827E+00 2.525E-01
8.360E-01 1.816E+00 9.412E-03 1.825E+00 2.566E-01
8.420E-01 1.814E+00 9.472E-03 1.824E+00 2.606E-01
8.480E-01 1.813E+00 9.533E-03 1.823E+00 2.647E-01
8.540E-01 1.812E+00 9.595E-03 1.821E+00 2.688E-01
8.600E-01 1.811E+00 9.656E-03 1.820E+00 2.729E-01
8.660E-01 1.809E+00 9.717E-03 1.819E+00 2.770E-01
8.720E-01 1.808E+00 9.779E-03 1.818E+00 2.810E-01
8.780E-01 1.807E+00 9.841E-03 1.817E+00 2.851E-01
8.840E-01 1.806E+00 9.903E-03 1.816E+00 2.892E-01
8.900E-01 1.805E+00 9.965E-03 1.815E+00 2.933E-01
8.960E-01 1.804E+00 1.003E-02 1.814E+00 2.974E-01
9.030E-01 1.802E+00 1.010E-02 1.812E+00 3.021E-01
9.090E-01 1.801E+00 1.016E-02 1.811E+00 3.062E-01
9.150E-01 1.800E+00 1.022E-02 1.810E+00 3.103E-01
9.210E-01 1.799E+00 1.029E-02 1.809E+00 3.144E-01
9.270E-01 1.798E+00 1.035E-02 1.808E+00 3.185E-01
9.330E-01 1.797E+00 1.041E-02 1.808E+00 3.225E-01
9.390E-01 1.796E+00 1.048E-02 1.807E+00 3.266E-01
9.450E-01 1.795E+00 1.054E-02 1.806E+00 3.307E-01
9.510E-01 1.794E+00 1.060E-02 1.805E+00 3.348E-01
9.570E-01 1.793E+00 1.067E-02 1.804E+00 3.388E-01
9.630E-01 1.793E+00 1.073E-02 1.803E+00 3.429E-01
9.690E-01 1.792E+00 1.079E-02 1.803E+00 3.470E-01
9.750E-01 1.791E+00 1.086E-02 1.802E+00 3.510E-01
9.810E-01 1.790E+00 1.092E-02 1.801E+00 3.551E-01
9.870E-01 1.789E+00 1.099E-02 1.800E+00 3.591E-01
9.930E-01 1.788E+00 1.105E-02 1.800E+00 3.632E-01
9.990E-01 1.788E+00 1.112E-02 1.799E+00 3.672E-01
1.005E+00 1.787E+00 1.118E-02 1.798E+00 3.713E-01
1.011E+00 1.786E+00 1.125E-02 1.797E+00 3.753E-01
1.017E+00 1.785E+00 1.131E-02 1.797E+00 3.794E-01
1.023E+00 1.785E+00 1.138E-02 1.796E+00 3.834E-01
1.029E+00 1.784E+00 1.144E-02 1.795E+00 3.875E-01
1.035E+00 1.783E+00 1.151E-02 1.795E+00 3.915E-01
1.041E+00 1.783E+00 1.157E-02 1.794E+00 3.955E-01
1.047E+00 1.782E+00 1.164E-02 1.794E+00 3.995E-01
1.053E+00 1.781E+00 1.170E-02 1.793E+00 4.036E-01
1.059E+00 1.781E+00 1.177E-02 1.793E+00 4.076E-01
1.065E+00 1.780E+00 1.184E-02 1.792E+00 4.116E-01
1.071E+00 1.780E+00 1.190E-02 1.791E+00 4.156E-01
1.077E+00 1.779E+00 1.197E-02 1.791E+00 4.196E-01
1.083E+00 1.778E+00 1.203E-02 1.790E+00 4.236E-01
1.089E+00 1.778E+00 1.210E-02 1.790E+00 4.276E-01
1.095E+00 1.777E+00 1.217E-02 1.790E+00 4.316E-01
1.101E+00 1.777E+00 1.223E-02 1.789E+00 4.356E-01
1.107E+00 1.776E+00 1.230E-02 1.789E+00 4.396E-01
1.113E+00 1.776E+00 1.237E-02 1.788E+00 4.435E-01
1.119E+00 1.775E+00 1.244E-02 1.788E+00 4.475E-01
1.125E+00 1.775E+00 1.250E-02 1.787E+00 4.515E-01
1.131E+00 1.774E+00 1.257E-02 1.787E+00 4.555E-01
1.137E+00 1.774E+00 1.264E-02 1.786E+00 4.594E-01
1.143E+00 1.773E+00 1.270E-02 1.786E+00 4.634E-01
1.149E+00 1.773E+00 1.277E-02 1.786E+00 4.673E-01
1.155E+00 1.772E+00 1.284E-02 1.785E+00 4.713E-01
1.161E+00 1.772E+00 1.291E-02 1.785E+00 4.752E-01
1.167E+00 1.772E+00 1.298E-02 1.785E+00 4.791E-01
1.173E+00 1.771E+00 1.304E-02 1.784E+00 4.831E-01
1.179E+00 1.771E+00 1.311E-02 1.784E+00 4.870E-01
1.185E+00 1.770E+00 1.318E-02 1.784E+00 4.909E-01
1.191E+00 1.770E+00 1.325E-02 1.783E+00 4.948E-01
1.197E+00 1.770E+00 1.332E-02 1.783E+00 4.987E-01
1.203E+00 1.769E+00 1.339E-02 1.783E+00 5.026E-01
1.209E+00 1.769E+00 1.346E-02 1.782E+00 5.065E-01
1.215E+00 1.769E+00 1.353E-02 1.782E+00 5.104E-01
1.221E+00 1.768E+00 1.359E-02 1.782E+00 5.143E-01
1.227E+00 1.768E+00 1.366E-02 1.782E+00 5.182E-01
1.233E+00 1.768E+00 1.373E-02 1.781E+00 5.221E-01
1.239E+00 1.767E+00 1.380E-02 1.781E+00 5.260E-01
1.245E+00 1.767E+00 1.387E-02 1.781E+00 5.298E-01
1.251E+00 1.767E+00 1.394E-02 1.781E+00 5.337E-01
1.257E+00 1.766E+00 1.401E-02 1.780E+00 5.375E-01
1.263E+00 1.766E+00 1.408E-02 1.780E+00 5.414E-01
1.269E+00 1.766E+00 1.415E-02 1.780E+00 5.452E-01
1.275E+00 1.766E+00 1.422E-02 1.780E+00 5.491E-01
1.281E+00 1.765E+00 1.429E-02 1.780E+00 5.529E-01
1.287E+00 1.765E+00 1.436E-02 1.779E+00 5.567E-01
1.293E+00 1.765E+00 1.443E-02 1.779E+00 5.605E-01
1.299E+00 1.765E+00 1.450E-02 1.779E+00 5.644E-01
1.305E+00 1.764E+00 1.457E-02 1.779E+00 5.682E-01
1.311E+00 1.764E+00 1.465E-02 1.779E+00 5.720E-01
1.317E+00 1.764E+00 1.472E-02 1.779E+00 5.758E-01
1.323E+00 1.764E+00 1.479E-02 1.778E+00 5.796E-01
1.329E+00 1.763E+00 1.486E-02 1.778E+00 5.833E-01
1.335E+00 1.763E+00 1.493E-02 1.778E+00 5.871E-01
1.341E+00 1.763E+00 1.500E-02 1.778E+00 5.909E-01
1.347E+00 1.763E+00 1.507E-02 1.778E+00 5.947E-01
1.353E+00 1.763E+00 1.514E-02 1.778E+00 5.984E-01
1.359E+00 1.762E+00 1.522E-02 1.778E+00 6.022E-01
1.365E+00 1.762E+00 1.529E-02 1.778E+00 6.059E-01
1.371E+00 1.762E+00 1.536E-02 1.777E+00 6.097E-01
1.377E+00 1.762E+00 1.543E-02 1.777E+00 6.134E-01
1.383E+00 1.762E+00 1.550E-02 1.777E+00 6.171E-01
1.389E+00 1.762E+00 1.558E-02 1.777E+00 6.209E-01
1.395E+00 1.761E+00 1.565E-02 1.777E+00 6.246E-01
1.401E+00 1.761E+00 1.572E-02 1.777E+00 6.283E-01
1.407E+00 1.761E+00 1.579E-02 1.777E+00 6.320E-01
1.413E+00 1.761E+00 1.587E-02 1.777E+00 6.357E-01
1.419E+00 1.761E+00 1.594E-02 1.777E+00 6.394E-01
1.425E+00 1.761E+00 1.601E-02 1.777E+00 6.431E-01
1.431E+00 1.761E+00 1.608E-02 1.777E+00 6.468E-01
1.437E+00 1.761E+00 1.616E-02 1.777E+00 6.505E-01
1.443E+00 1.760E+00 1.623E-02 1.777E+00 6.541E-01
1.449E+00 1.760E+00 1.630E-02 1.777E+00 6.578E-01
1.455E+00 1.760E+00 1.638E-02 1.777E+00 6.615E-01
1.461E+00 1.760E+00 1.645E-02 1.777E+00 6.651E-01
1.467E+00 1.760E+00 1.652E-02 1.777E+00 6.688E-01
1.473E+00 1.760E+00 1.660E-02 1.776E+00 6.724E-01
1.479E+00 1.760E+00 1.667E-02 1.776E+00 6.760E-01
1.485E+00 1.760E+00 1.674E-02 1.776E+00 6.797E-01
1.491E+00 1.760E+00 1.682E-02 1.776E+00 6.833E-01
1.497E+00 1.760E+00 1.689E-02 1.776E+00 6.869E-01
1.504E+00 1.759E+00 1.698E-02 1.776E+00 6.911E-01
1.510E+00 1.759E+00 1.705E-02 1.776E+00 6.947E-01
1.516E+00 1.759E+00 1.713E-02 1.776E+00 6.983E-01
1.522E+00 1.759E+00 1.720E-02 1.776E+00 7.019E-01
1.528E+00 1.759E+00 1.728E-02 1.776E+00 7.055E-01
1.534E+00 1.759E+00 1.735E-02 1.776E+00 7.091E-01
1.540E+00 1.759E+00 1.742E-02 1.776E+00 7.126E-01
1.546E+00 1.759E+00 1.750E-02 1.777E+00 7.162E-01
1.552E+00 1.759E+00 1.757E-02 1.777E+00 7.198E-01
1.558E+00 1.759E+00 1.765E-02 1.777E+00 7.233E-01
1.564E+00 1.759E+00 1.772E-02 1.777E+00 7.269E-01
1.570E+00 1.759E+00 1.780E-02 1.777E+00 7.304E-01
1.576E+00 1.759E+00 1.787E-02 1.777E+00 7.339E-01
1.582E+00 1.759E+00 1.795E-02 1.777E+00 7.375E-01
1.588E+00 1.759E+00 1.802E-02 1.777E+00 7.410E-01
1.594E+00 1.759E+00 1.810E-02 1.777E+00 7.445E-01
1.600E+00 1.759E+00 1.818E-02 1.777E+00 7.480E-01
1.606E+00 1.759E+00 1.825E-02 1.777E+00 7.515E-01
1.612E+00 1.759E+00 1.833E-02 1.777E+00 7.550E-01
1.618E+00 1.759E+00 1.840E-02 1.777E+00 7.585E-01
1.624E+00 1.759E+00 1.848E-02 1.777E+00 7.620E-01
1.630E+00 1.759E+00 1.855E-02 1.777E+00 7.655E-01
1.636E+00 1.759E+00 1.863E-02 1.777E+00 7.690E-01
1.642E+00 1.759E+00 1.871E-02 1.777E+00 7.724E-01
1.648E+00 1.759E+00 1.878E-02 1.777E+00 7.759E-01
1.654E+00 1.759E+00 1.886E-02 1.777E+00 7.794E-01
1.660E+00 1.759E+00 1.893E-02 1.777E+00 7.828E-01
1.666E+00 1.759E+00 1.901E-02 1.778E+00 7.863E-01
1.672E+00 1.759E+00 1.909E-02 1.778E+00 7.897E-01
1.678E+00 1.759E+00 1.916E-02 1.778E+00 7.931E-01
1.684E+00 1.759E+00 1.924E-02 1.778E+00 7.966E-01
1.690E+00 1.759E+00 1.932E-02 1.778E+00 8.000E-01
1.696E+00 1.759E+00 1.939E-02 1.778E+00 8.034E-01
1.702E+00 1.759E+00 1.947E-02 1.778E+00 8.068E-01
1.708E+00 1.759E+00 1.955E-02 1.778E+00 8.102E-01
1.714E+00 1.759E+00 1.962E-02 1.778E+00 8.136E-01
1.720E+00 1.759E+00 1.970E-02 1.778E+00 8.170E-01
1.726E+00 1.759E+00 1.978E-02 1.779E+00 8.204E-01
1.732E+00 1.759E+00 1.986E-02 1.779E+00 8.238E-01
1.738E+00 1.759E+00 1.993E-02 1.779E+00 8.271E-01
1.744E+00 1.759E+00 2.001E-02 1.779E+00 8.305E-01
1.750E+00 1.759E+00 2.009E-02 1.779E+00 8.339E-01
1.756E+00 1.759E+00 2.017E-02 1.779E+00 8.372E-01
1.762E+00 1.759E+00 2.024E-02 1.779E+00 8.406E-01
1.768E+00 1.759E+00 2.032E-02 1.779E+00 8.439E-01
1.774E+00 1.759E+00 2.040E-02 1.779E+00 8.473E-01
1.780E+00 1.759E+00 2.048E-02 1.780E+00 8.506E-01
1.786E+00 1.759E+00 2.055E-02 1.780E+00 8.539E-01
1.792E+00 1.759E+00 2.063E-02 1.780E+00 8.572E-01
1.798E+00 1.759E+00 2.071E-02 1.780E+00 8.606E-01
1.804E+00 1.759E+00 2.079E-02 1.780E+00 8.639E-01
1.810E+00 1.759E+00 2.087E-02 1.780E+00 8.672E-01
1.816E+00 1.759E+00 2.095E-02 1.780E+00 8.705E-01
1.822E+00 1.759E+00 2.102E-02 1.780E+00 8.738E-01
1.828E+00 1.759E+00 2.110E-02 1.781E+00 8.770E-01
1.834E+00 1.760E+00 2.118E-02 1.781E+00 8.803E-01
1.840E+00 1.760E+00 2.126E-02 1.781E+00 8.836E-01
1.846E+00 1.760E+00 2.134E-02 1.781E+00 8.869E-01
1.852E+00 1.760E+00 2.142E-02 1.781E+00 8.901E-01
1.858E+00 1.760E+00 2.150E-02 1.781E+00 8.934E-01
1.864E+00 1.760E+00 2.158E-02 1.781E+00 8.966E-01
1.870E+00 1.760E+00 2.165E-02 1.782E+00 8.999E-01
1.876E+00 1.760E+00 2.173E-02 1.782E+00 9.031E-01
1.882E+00 1.760E+00 2.181E-02 1.782E+00 9.064E-01
1.888E+00 1.760E+00 2.189E-02 1.782E+00 9.096E-01
1.894E+00 1.760E+00 2.197E-02 1.782E+00 9.128E-01
1.900E+00 1.760E+00 2.205E-02 1.782E+00 9.160E-01
1.906E+00 1.760E+00 2.213E-02 1.782E+00 9.193E-01
1.912E+00 1.760E+00 2.221E-02 1.783E+00 9.225E-01
1.918E+00 1.760E+00 2.229E-02 1.783E+00 9.257E-01
1.924E+00 1.761E+00 2.237E-02 1.783E+00 9.289E-01
1.930E+00 1.761E+00 2.245E-02 1.783E+00 9.320E-01
1.936E+00 1.761E+00 2.253E-02 1.783E+00 9.352E-01
1.942E+00 1.761E+00 2.261E-02 1.783E+00 9.384E-01
1.948E+00 1.761E+00 2.269E-02 1.784E+00 9.416E-01
1.954E+00 1.761E+00 2.277E-02 1.784E+00 9.448E-01
1.960E+00 1.761E+00 2.285E-02 1.784E+00 9.479E-01
1.966E+00 1.761E+00 2.293E-02 1.784E+00 9.511E-01
1.972E+00 1.761E+00 2.301E-02 1.784E+00 9.542E-01
1.978E+00 1.761E+00 2.309E-02 1.784E+00 9.574E-01
1.984E+00 1.761E+00 2.317E-02 1.785E+00 9.605E-01
1.990E+00 1.761E+00 2.325E-02 1.785E+00 9.637E-01
1.996E+00 1.762E+00 2.333E-02 1.785E+00 9.668E-01
2.002E+00 1.762E+00 2.341E-02 1.785E+00 9.699E-01
2.008E+00 1.762E+00 2.349E-02 1.785E+00 9.730E-01
2.014E+00 1.762E+00 2.357E-02 1.785E+00 9.761E-01
2.020E+00 1.762E+00 2.365E-02 1.786E+00 9.793E-01
2.026E+00 1.762E+00 2.373E-02 1.786E+00 9.824E-01
2.032E+00 1.762E+00 2.381E-02 1.786E+00 9.855E-01
2.038E+00 1.762E+00 2.389E-02 1.786E+00 9.885E-01
2.044E+00 1.762E+00 2.398E-02 1.786E+00 9.916E-01
2.050E+00 1.762E+00 2.406E-02 1.787E+00 9.947E-01
2.056E+00 1.763E+00 2.414E-02 1.787E+00 9.978E-01
2.062E+00 1.763E+00 2.422E-02 1.787E+00 1.001E+00
2.068E+00 1.763E+00 2.430E-02 1.787E+00 1.004E+00
2.074E+00 1.763E+00 2.438E-02 1.787E+00 1.007E+00
2.080E+00 1.763E+00 2.446E-02 1.787E+00 1.010E+00
2.086E+00 1.763E+00 2.454E-02 1.788E+00 1.013E+00
2.092E+00 1.763E+00 2.463E-02 1.788E+00 1.016E+00
2.098E+00 1.763E+00 2.471E-02 1.788E+00 1.019E+00
2.105E+00 1.763E+00 2.480E-02 1.788E+00 1.023E+00
2.111E+00 1.764E+00 2.488E-02 1.788E+00 1.026E+00
2.117E+00 1.764E+00 2.497E-02 1.789E+00 1.029E+00
2.123E+00 1.764E+00 2.505E-02 1.789E+00 1.032E+00
2.129E+00 1.764E+00 2.513E-02 1.789E+00 1.035E+00
2.135E+00 1.764E+00 2.521E-02 1.789E+00 1.038E+00
2.141E+00 1.764E+00 2.529E-02 1.789E+00 1.041E+00
2.147E+00 1.764E+00 2.538E-02 1.790E+00 1.044E+00
2.153E+00 1.764E+00 2.546E-02 1.790E+00 1.047E+00
2.159E+00 1.764E+00 2.554E-02 1.790E+00 1.050E+00
2.165E+00 1.765E+00 2.562E-02 1.790E+00 1.053E+00
2.171E+00 1.765E+00 2.571E-02 1.790E+00 1.056E+00
2.177E+00 1.765E+00 2.579E-02 1.791E+00 1.059E+00
2.183E+00 1.765E+00 2.587E-02 1.791E+00 1.062E+00
2.189E+00 1.765E+00 2.595E-02 1.791E+00 1.065E+00
2.195E+00 1.765E+00 2.604E-02 1.791E+00 1.068E+00
2.201E+00 1.765E+00 2.612E-02 1.791E+00 1.071E+00
2.207E+00 1.765E+00 2.620E-02 1.792E+00 1.074E+00
2.213E+00 1.766E+00 2.628E-02 1.792E+00 1.076E+00
2.219E+00 1.766E+00 2.637E-02 1.792E+00 1.079E+00
2.225E+00 1.766E+00 2.645E-02 1.792E+00 1.082E+00
2.231E+00 1.766E+00 2.653E-02 1.792E+00 1.085E+00
2.237E+00 1.766E+00 2.662E-02 1.793E+00 1.088E+00
2.243E+00 1.766E+00 2.670E-02 1.793E+00 1.091E+00
2.249E+00 1.766E+00 2.678E-02 1.793E+00 1.094E+00
2.255E+00 1.766E+00 2.687E-02 1.793E+00 1.097E+00
2.261E+00 1.767E+00 2.695E-02 1.793E+00 1.100E+00
2.267E+00 1.767E+00 2.703E-02 1.794E+00 1.103E+00
2.273E+00 1.767E+00 2.712E-02 1.794E+00 1.106E+00
2.279E+00 1.767E+00 2.720E-02 1.794E+00 1.109E+00
2.285E+00 1.767E+00 2.728E-02 1.794E+00 1.111E+00
2.291E+00 1.767E+00 2.737E-02 1.795E+00 1.114E+00
2.297E+00 1.767E+00 2.745E-02 1.795E+00 1.117E+00
2.303E+00 1.767E+00 2.753E-02 1.795E+00 1.120E+00
2.309E+00 1.768E+00 2.762E-02 1.795E+00 1.123E+00
2.315E+00 1.768E+00 2.770E-02 1.795E+00 1.126E+00
2.321E+00 1.768E+00 2.778E-02 1.796E+00 1.129E+00
2.327E+00 1.768E+00 2.787E-02 1.796E+00 1.132E+00
2.333E+00 1.768E+00 2.795E-02 1.796E+00 1.134E+00
2.339E+00 1.768E+00 2.804E-02 1.796E+00 1.137E+00
2.345E+00 1.768E+00 2.812E-02 1.796E+00 1.140E+00
2.351E+00 1.768E+00 2.820E-02 1.797E+00 1.143E+00
2.357E+00 1.769E+00 2.829E-02 1.797E+00 1.146E+00
2.363E+00 1.769E+00 2.837E-02 1.797E+00 1.149E+00
2.369E+00 1.769E+00 2.846E-02 1.797E+00 1.151E+00
2.375E+00 1.769E+00 2.854E-02 1.798E+00 1.154E+00
